energy (eV),scatter (barn),capture (barn),total (barn)
9.999999999999999e-06,21.15662,8.507805,29.664425
1.03125e-05,20.83597,8.377908,29.213878
1.0625e-05,20.5296,8.253784,28.783384
1.09375e-05,20.23649,8.135018,28.371508
1.125e-05,19.95571,8.021236,27.976946
1.15625e-05,19.68642,7.912098,27.598518
1.1874999999999999e-05,19.42787,7.807298,27.235168
1.21875e-05,19.17935,7.706554,26.885904
1.25e-05,18.94024,7.609612,26.549852
1.28125e-05,18.70996,7.51624,26.2262
1.3125e-05,18.48798,7.426222,25.914202
1.34375e-05,18.27381,7.339363,25.613173
1.3749999999999999e-05,18.067,7.255481,25.322481
1.4375e-05,17.67388,7.096001,24.769881
1.5e-05,17.30567,6.946594,24.252264
1.5625e-05,16.95987,6.806245,23.766115
1.625e-05,16.63428,6.674072,23.308352
1.6875e-05,16.32702,6.549312,22.876332
1.7500000000000002e-05,16.03644,6.431297,22.467737
1.8125e-05,15.76109,6.31944,22.08053
1.875e-05,15.49968,6.213223,21.712903
1.9375e-05,15.25108,6.112189,21.363269
1.9999999999999998e-05,15.01428,6.015928,21.030208
2.0937499999999997e-05,14.67926,5.8797,20.55896
2.1875e-05,14.36612,5.752327,20.118447
2.28125e-05,14.07259,5.632888,19.705478
2.3749999999999998e-05,13.7967,5.520594,19.317294
2.46875e-05,13.53678,5.414758,18.951538
2.5625e-05,13.29133,5.314785,18.606115
2.65625e-05,13.05908,5.220152,18.279232
2.7499999999999998e-05,12.83888,5.1304,17.96928
2.84375e-05,12.62973,5.045125,17.674855
2.9375000000000003e-05,12.43075,4.963964,17.394714
3.0312499999999998e-05,12.24113,4.886599,17.127729
3.125e-05,12.06017,4.812742,16.872912
3.2187499999999996e-05,11.88724,4.742136,16.629376
3.3125e-05,11.72175,4.674548,16.396298
3.40625e-05,11.5632,4.609771,16.172971
3.5000000000000004e-05,11.41112,4.547614,15.958734
3.59375e-05,11.26507,4.487905,15.752975
3.6875e-05,11.12468,4.430488,15.555168
3.78125e-05,10.98959,4.37522,15.36481
3.875e-05,10.85948,4.32197,15.18145
3.9687499999999996e-05,10.73404,4.270618,15.004658
4.0625000000000005e-05,10.61302,4.221054,14.834074
4.25e-05,10.38321,4.126892,14.510102
4.4375e-05,10.16827,4.038763,14.207033
4.625e-05,9.966673,3.95605,13.922723
4.8125000000000004e-05,9.777104,3.878218,13.655322
5e-05,9.598421,3.804807,13.403228
5.15625e-05,9.457114,3.746715,13.203829
5.3125e-05,9.322163,3.691205,13.013368
5.46875e-05,9.19311,3.638091,12.831201
5.625e-05,9.069542,3.587206,12.656748
5.78125e-05,8.951085,3.538398,12.489483
5.9375e-05,8.8374,3.49153,12.32893
6.0937500000000004e-05,8.728176,3.446476,12.174652
6.25e-05,8.623133,3.403123,12.026256
6.40625e-05,8.522014,3.361365,11.883379
6.562500000000001e-05,8.424582,3.321108,11.74569
6.71875e-05,8.330622,3.282263,11.612885
6.874999999999999e-05,8.239934,3.24475,11.484684
7.1875e-05,8.067657,3.173428,11.241085
7.5e-05,7.906442,3.106612,11.013054
7.8125e-05,7.755169,3.043845,10.799014
8.125000000000001e-05,7.612869,2.984736,10.597605
8.4375e-05,7.478701,2.928942,10.407643
8.75e-05,7.351925,2.876164,10.228089
9.0625e-05,7.231898,2.82614,10.058038
9.375e-05,7.118051,2.778638,9.896689
9.6875e-05,7.009878,2.733454,9.743332
0.0001,6.906931,2.690405,9.597336
0.000103125,6.808807,2.649327,9.458134
0.00010625,6.71515,2.610076,9.325226
0.000109375,6.625635,2.572519,9.198154
0.0001125,6.53997,2.536538,9.076508
0.000115625,6.457893,2.502026,8.959919
0.00011875,6.379165,2.468885,8.84805
0.00012187500000000001,6.303567,2.437027,8.740594
0.000125,6.230903,2.406371,8.637274
0.000128125,6.160991,2.376844,8.537835
0.00013125000000000002,6.093665,2.348378,8.442043
0.000134375,6.028773,2.320911,8.349684
0.00013749999999999998,5.966174,2.294385,8.260559
0.00014375,5.847352,2.243953,8.091305
0.00015,5.736279,2.196706,7.932985
0.00015625,5.632167,2.152324,7.784491
0.00016250000000000002,5.534334,2.110527,7.644861
0.00016875,5.442189,2.071075,7.513264
0.000175,5.355215,2.033755,7.38897
0.00018125,5.272958,1.998383,7.271341
0.0001875,5.195017,1.964794,7.159811
0.00019375,5.12104,1.932844,7.053884
0.0002,5.05071,1.902404,6.953114
0.00020937499999999998,4.951445,1.859325,6.81077
0.00021875,4.858931,1.819046,6.677977
0.000228125,4.772458,1.781276,6.553734
0.0002375,4.691417,1.745765,6.437182
0.00024687499999999997,4.615281,1.712297,6.327578
0.00025625,4.543591,1.680683,6.224274
0.000265625,4.475946,1.650757,6.126703
0.00027499999999999996,4.411994,1.622375,6.034369
0.000284375,4.351422,1.595409,5.946831
0.00029375,4.293954,1.569744,5.863698
0.00030312499999999995,4.239346,1.545279,5.784625
0.0003125,4.187377,1.521923,5.7093
0.000321875,4.13785,1.499595,5.637445
0.00033125,4.090588,1.478222,5.56881
0.000340625,4.045432,1.457738,5.50317
0.00035,4.002236,1.438082,5.440318
0.000359375,3.96087,1.4192,5.38007
0.00036875,3.921214,1.401044,5.322258
0.00037812500000000004,3.883159,1.383566,5.266725
0.0003875,3.846606,1.366727,5.213333
0.000396875,3.811463,1.350488,5.161951
0.00040625000000000004,3.777647,1.334815,5.112462
0.000425,3.713694,1.305038,5.018732
0.00044374999999999997,3.654198,1.277169,4.931367
0.0004625,3.598692,1.251013,4.849705
0.00048124999999999996,3.546774,1.226401,4.773175
0.0005,3.498095,1.203186,4.701281
0.0005156249999999999,3.459782,1.184815,4.644597
0.00053125,3.423351,1.167262,4.590613
0.000546875,3.388662,1.150466,4.539128
0.0005625,3.35559,1.134374,4.489964
0.000578125,3.324021,1.11894,4.442961
0.0005937500000000001,3.293851,1.104119,4.39797
0.000609375,3.264988,1.089872,4.35486
0.000625,3.237346,1.076162,4.313508
0.000640625,3.210848,1.062957,4.273805
0.0006562499999999999,3.185421,1.050227,4.235648
0.0006718750000000001,3.161002,1.037943,4.198945
0.0006875,3.137531,1.02608,4.163611
0.00071875,3.093212,1.003526,4.096738
0.00075,3.052075,0.982397,4.034472
0.0007812499999999999,3.013782,0.9625486,3.9763306
0.0008125000000000001,2.978045,0.9438565,3.9219015
0.00084375,2.944613,0.9262128,3.8708258
0.000875,2.913268,0.9095229,3.8227909
0.00090625,2.883818,0.8937039,3.7775219
0.0009375,2.856096,0.8786826,3.7347786
0.00096875,2.829953,0.8643941,3.6943471
0.001,2.805258,0.8507807,3.6560387
0.0010312499999999998,2.781892,0.8377909,3.6196829
0.0010625,2.759751,0.8253785,3.5851295
0.00109375,2.738741,0.8135019,3.5522429
0.001125,2.718778,0.8021237,3.5209017
0.00115625,2.699785,0.7912099,3.4909949
0.0011875000000000002,2.681693,0.7807298,3.4624228
0.00121875,2.664441,0.7706554,3.4350964
0.00125,2.647971,0.7609613,3.4089323
0.00128125,2.632231,0.7516239,3.3838549
0.0013124999999999999,2.617174,0.7426221,3.3597961
0.0013437500000000001,2.602757,0.7339362,3.3366932
0.001375,2.58894,0.725548,3.314488
0.0014375,2.562965,0.7095999,3.2725649
0.0015,2.538989,0.6946593,3.2336483
0.0015624999999999999,2.516792,0.6806243,3.1974163
0.0016250000000000001,2.496186,0.667407,3.163593
0.0016875,2.477007,0.6549309,3.1319379
0.00175,2.459113,0.6431294,3.1022424
0.0018125,2.442381,0.6319436,3.0743246
0.001875,2.426703,0.6213219,3.0480249
0.0019375,2.411984,0.6112184,3.0232024
0.002,2.398138,0.6015923,2.9997303
0.00209375,2.378848,0.5879695,2.9668175
0.0021875,2.361142,0.5752321,2.9363741
0.0022812500000000003,2.344833,0.5632882,2.9081212
0.0023750000000000004,2.329765,0.5520587,2.8818237
0.00246875,2.315804,0.5414751,2.8572791
0.0025625,2.302833,0.5314777,2.8343107
0.0026562499999999998,2.290752,0.5220144,2.8127664
0.00275,2.279474,0.5130392,2.7925132
0.00284375,2.268921,0.5045116,2.7734326
0.0029375,2.259028,0.4963955,2.7554235
0.0030312499999999997,2.249735,0.488659,2.738394
0.0031249999999999997,2.240988,0.4812732,2.7222612
0.00321875,2.232743,0.4742126,2.7069556
0.0033125,2.224958,0.4674538,2.6924118
0.00340625,2.217595,0.460976,2.678571
0.0035,2.210621,0.4547603,2.6653813
0.0035937499999999997,2.204008,0.4487894,2.6527974
0.0036875,2.197726,0.4430477,2.6407737
0.0037812500000000003,2.191754,0.4375209,2.6292749
0.003875,2.186067,0.4321958,2.6182628
0.00396875,2.180647,0.4270606,2.6077076
0.0040625,2.175476,0.4221042,2.5975802
0.00425,2.165813,0.412688,2.578501
0.0044375,2.156962,0.4038751,2.5608371
0.004625,2.148825,0.3956037,2.5444287
0.0048125,2.14132,0.3878205,2.5291405
0.005,2.134375,0.3804794,2.5148544
0.00515625,2.128973,0.3746701,2.5036431
0.0053124999999999995,2.123888,0.3691191,2.4930071
0.00546875,2.119094,0.3638077,2.4829017
0.005625,2.114565,0.3587192,2.4732842
0.00578125,2.11028,0.3538385,2.4641185
0.0059375,2.106221,0.3491516,2.4553726
0.00609375,2.102369,0.3446462,2.4470152
0.0062499999999999995,2.09871,0.3403109,2.4390209
0.00640625,2.09523,0.3361351,2.4313651
0.0065625,2.091915,0.3321093,2.4240243
0.00671875,2.088754,0.3282249,2.4169789
0.006875,2.085736,0.3244736,2.4102096
0.0071874999999999994,2.080095,0.3173414,2.3974364
0.0075,2.074924,0.3106597,2.3855837
0.0078125,2.070166,0.3043831,2.3745491
0.008125,2.065775,0.2984722,2.3642472
0.0084375,2.061708,0.2928928,2.3546008
0.00875,2.057932,0.287615,2.345547
0.0090625,2.054417,0.2826126,2.3370296
0.009375,2.051136,0.2778625,2.3289985
0.0096875,2.048066,0.2733441,2.3214101
0.01,2.045188,0.2690392,2.3142272
0.0103125,2.042485,0.2649315,2.3074165
0.010624999999999999,2.039941,0.2610064,2.3009474
0.0109375,2.037542,0.2572507,2.2947927
0.01125,2.035276,0.2536526,2.2889286
0.0115625,2.033133,0.2502014,2.2833344
0.011875,2.031103,0.2468874,2.2779904
0.0121875,2.029177,0.2437016,2.2728786
0.012499999999999999,2.027347,0.240636,2.267983
0.0128125,2.025606,0.2376833,2.2632893
0.013125,2.023948,0.2348367,2.2587847
0.0134375,2.022368,0.23209,2.254458
0.01375,2.020859,0.2294374,2.2502964
0.014374999999999999,2.018038,0.2243942,2.2424322
0.015,2.015452,0.2196695,2.2351215
0.015625,2.013073,0.2152312,2.2283042
0.01625,2.010878,0.2110515,2.2219295
0.016875,2.008844,0.2071061,2.2159501
0.0175,2.006956,0.2033741,2.2103301
0.018125,2.005198,0.1998367,2.2050347
0.01875,2.003558,0.1964777,2.2000357
0.019375,2.002023,0.1932826,2.1953056
0.02,2.000584,0.1902385,2.1908225
0.0206625,1.999154,0.1871638,2.1863178
0.021325,1.997813,0.1842334,2.1820464
0.0219875,1.996552,0.1814366,2.1779886
0.02265,1.995366,0.1787634,2.1741294
0.0233125,1.994246,0.176205,2.170451
0.023975,1.993189,0.1737534,2.1669424
0.024637500000000003,1.992188,0.1714014,2.1635894
0.025300000000000003,1.99124,0.1691425,2.1603825
0.02645782,1.989697,0.1654003,2.1550973
0.02761563,1.988284,0.1618961,2.1501801
0.02877344,1.986984,0.1586057,2.1455897
0.02993125,1.985784,0.1555081,2.1412921
0.031089069999999996,1.984674,0.1525852,2.1372592
0.03224688,1.983644,0.1498212,2.1334652
0.03340469,1.982685,0.1472021,2.1298871
0.0345625,1.981791,0.1447157,2.1265067
0.03552735,1.98109,0.1427372,2.1238272
0.03649219,1.980426,0.1408377,2.1212637
0.037457040000000004,1.979796,0.139012,2.118808
0.03842188,1.979198,0.1372555,2.1164535
0.03938673,1.978629,0.1355638,2.1141928
0.040351569999999996,1.978088,0.1339332,2.1120212
0.041316410000000005,1.977572,0.13236,2.109932
0.04228125,1.977079,0.130841,2.10792
0.04421094,1.976158,0.1279534,2.1041114
0.046140629999999995,1.975314,0.1252489,2.1005629
0.04807032,1.974538,0.1227089,2.0972469
0.049999999999999996,1.973822,0.1203174,2.0941394
0.051562500000000004,1.973281,0.1184802,2.0917612
0.053125,1.972772,0.1167247,2.0894967
0.0546875,1.972292,0.115045,2.087337
0.056249999999999994,1.971839,0.1134359,2.0852749
0.0578125,1.971411,0.1118925,2.0833035
0.059375,1.971005,0.1104106,2.0814156
0.0609375,1.970619,0.108986,2.079605
0.0625,1.970253,0.1076152,2.0778682
0.0640625,1.969905,0.106295,2.0762
0.06562499999999999,1.969574,0.1050221,2.0745961
0.06718750000000001,1.969258,0.103794,2.073052
0.06875,1.968956,0.102608,2.071564
0.071875,1.968392,0.100353,2.068745
0.075,1.967874,0.09824028,2.06611428
0.078125,1.967399,0.09625554,2.06365454
0.08125,1.966959,0.09438629,2.06134529
0.084375,1.966553,0.09262175,2.05917475
0.0875,1.966175,0.09095251,2.05712751
0.09062500000000001,1.965824,0.08937032,2.05519432
0.09375,1.965495,0.08786787,2.05336287
0.096875,1.965188,0.08643872,2.05162672
0.09999999999999999,1.964901,0.0850771,2.0499781
0.10312500000000001,1.96463,0.08377788,2.04840788
0.10625,1.964376,0.08253645,2.04691245
0.109375,1.964136,0.08134866,2.04548466
0.11249999999999999,1.963909,0.08021076,2.04411976
0.115625,1.963695,0.07911939,2.04281439
0.11875,1.963491,0.07807146,2.04156246
0.121875,1.963299,0.07706418,2.04036318
0.125,1.963116,0.07609498,2.03921098
0.128125,1.962942,0.07516153,2.03810353
0.13124999999999998,1.962776,0.07426165,2.03703765
0.13437500000000002,1.962618,0.07339339,2.03601139
0.1375,1.962467,0.07255489,2.03502189
0.14375,1.962185,0.07096063,2.03314563
0.15,1.961926,0.0694669,2.0313929
0.15625,1.961688,0.06806351,2.02975151
0.1625,1.961469,0.06674172,2.02821072
0.16875,1.961265,0.065494,2.026759
0.175,1.961077,0.06431375,2.02539075
0.18125000000000002,1.960901,0.06319518,2.02409618
0.1875,1.960737,0.06213312,2.02287012
0.19375,1.960583,0.06112297,2.02170597
0.19999999999999998,1.960439,0.06016059,2.02059959
0.209375,1.960239,0.05879859,2.01903759
0.21875,1.960057,0.05752494,2.01758194
0.22812500000000002,1.959889,0.05633041,2.01621941
0.2375,1.959734,0.05520717,2.01494117
0.246875,1.959592,0.05414848,2.01374048
0.25625,1.959459,0.0531484,2.0126074
0.265625,1.959336,0.05220177,2.01153777
0.275,1.959222,0.05130398,2.01052598
0.284375,1.959115,0.05045099,2.00956599
0.29375,1.959015,0.04963918,2.00865418
0.30312500000000003,1.958921,0.04886534,2.00778634
0.3125,1.958832,0.04812661,2.00695861
0.32187499999999997,1.958749,0.04742041,2.00616941
0.33125,1.95867,0.04674442,2.00541442
0.340625,1.958596,0.04609655,2.00469255
0.35,1.958526,0.04547493,2.00400093
0.359375,1.958459,0.04487785,2.00333685
0.36875,1.958396,0.04430378,2.00269978
0.378125,1.958336,0.0437513,2.0020873
0.3875,1.958279,0.04321913,2.00149813
0.39687500000000003,1.958225,0.04270602,2.00093102
0.40625,1.958173,0.04221082,2.00038382
0.425,1.958076,0.04126993,1.99934593
0.44375,1.957987,0.04038903,1.99837603
0.4625,1.957905,0.0395622,1.9974672
0.5,1.95776,0.03805141,1.99581141
0.53125,1.957655,0.03691652,1.99457152
0.5625,1.957561,0.03587632,1.99343732
0.59375,1.957478,0.03491885,1.99239685
0.625,1.957402,0.03403412,1.99143612
0.6875,1.957272,0.03244938,1.98972138
0.75,1.957163,0.03106729,1.98823029
0.8125,1.957071,0.02984833,1.98691933
0.875,1.956992,0.02876511,1.98575711
0.9375,1.956924,0.02779181,1.98471581
1.0,1.956864,0.02690875,1.98377275
1.0625,1.956811,0.0261046,1.9829156
1.125,1.956763,0.02536853,1.98213153
1.1875,1.956721,0.02469143,1.98141243
1.25,1.956683,0.02406583,1.98074883
1.375,1.956617,0.02294525,1.97956225
1.5,1.956562,0.02196797,1.97852997
1.625,1.956515,0.02110585,1.97762085
1.75,1.956475,0.02034008,1.97681508
1.875,1.95644,0.01965202,1.97609202
2.0,1.956409,0.01902649,1.97543549
2.1875,1.956369,0.01819139,1.97456039
2.375,1.956335,0.01745825,1.97379325
2.5625,1.956306,0.01680719,1.97311319
2.75,1.95628,0.01622552,1.97250552
2.9375,1.956258,0.01570037,1.97195837
3.125,1.956238,0.01522168,1.97145968
3.3125,1.95622,0.01478427,1.97100427
3.5,1.956204,0.01438253,1.97058653
3.875,1.956176,0.01366849,1.96984449
4.25,1.956153,0.01305126,1.96920426
4.625,1.956132,0.01251076,1.96864276
5.0,1.956114,0.01203307,1.96814707
5.3125,1.956101,0.01167436,1.96777536
5.625,1.956089,0.01134524,1.96743424
5.9375,1.956078,0.01104248,1.96712048
6.25,1.956068,0.01076273,1.96683073
6.875,1.956049,0.01026165,1.96631065
7.5,1.956033,0.009824635,1.96585764
8.125,1.956018,0.009439095,1.9654571
8.75,1.956005,0.00909631,1.96510131
9.375,1.955992,0.008788396,1.9647804
10.0,1.95598,0.008509174,1.96448917
10.625,1.95597,0.008254989,1.96422499
11.25,1.955959,0.00802231,1.96398131
11.875,1.95595,0.007808264,1.96375826
12.5,1.95594,0.00761049,1.96355049
13.75,1.955923,0.007256226,1.96317923
15.0,1.955906,0.006947247,1.96285325
16.25,1.955891,0.006674661,1.96256566
17.5,1.955876,0.00643217,1.96230817
18.75,1.955861,0.006214354,1.96207535
20.0,1.955847,0.006016839,1.96186384
21.875,1.955827,0.005753035,1.96158004
23.75,1.955807,0.005521265,1.96132827
25.625,1.955787,0.005315434,1.96110243
27.5,1.955768,0.005131237,1.96089924
29.375,1.955749,0.004964973,1.96071397
31.25,1.955731,0.004813709,1.96054471
33.125,1.955713,0.004675485,1.96038849
35.0,1.955694,0.004548528,1.96024253
38.75,1.955659,0.00432286,1.95998186
42.5,1.955623,0.004127775,1.95975078
46.25,1.955588,0.003956936,1.95954494
50.0,1.955553,0.003805785,1.95935879
53.125,1.955525,0.003692269,1.95921727
56.25,1.955496,0.003588271,1.95908427
59.375,1.955467,0.003492598,1.9589596
62.5,1.955438,0.003404198,1.9588422
68.75,1.955381,0.003245848,1.95862685
75.0,1.955325,0.003107739,1.95843274
81.25,1.955268,0.002985897,1.9582539
87.5,1.955211,0.002877425,1.95808843
93.75,1.955155,0.002779994,1.95793499
100.0,1.955099,0.002691784,1.95779078
106.25,1.955042,0.002611481,1.95765348
112.5,1.954987,0.002537971,1.95752497
118.75,1.95493,0.002470346,1.95740035
125.0,1.954874,0.002407863,1.95728186
137.5,1.954762,0.002295938,1.95705794
150.0,1.954651,0.002198324,1.95684932
162.5,1.954539,0.002112208,1.95665121
175.0,1.954427,0.00203553,1.95646253
187.5,1.954315,0.001966659,1.95628166
200.0,1.954203,0.00190431,1.95610731
218.75,1.954036,0.001821022,1.95585702
237.5,1.953868,0.001747823,1.95561582
256.25,1.9537,0.001682822,1.95538282
275.0,1.953533,0.001624612,1.95515761
293.75,1.953365,0.001572075,1.95493708
312.5,1.953198,0.001524326,1.95472233
331.25,1.953031,0.001480694,1.95451169
350.0,1.952863,0.001440622,1.95430362
387.5,1.952527,0.001369401,1.9538964
425.0,1.952192,0.001307841,1.95349984
462.5,1.951856,0.001253939,1.95310994
500.0,1.951521,0.00120624,1.95272724
531.25,1.951241,0.00117042,1.95241142
562.5,1.950961,0.001137626,1.95209863
593.75,1.95068,0.001107461,1.95178746
625.0,1.9504,0.001079593,1.95147959
687.5,1.949839,0.001029684,1.95086868
750.0,1.949278,0.0009861663,1.95026417
812.5,1.948717,0.0009477856,1.94966479
875.0,1.948155,0.0009136129,1.94906861
937.5,1.947593,0.0008829279,1.94847593
1000.0,1.94703,0.0008551696,1.94788517
1062.5,1.946467,0.0008299072,1.94729691
1125.0,1.945903,0.0008067888,1.94670979
1250.0,1.944774,0.0007658895,1.94553989
1375.0,1.943644,0.0007307284,1.94437473
1500.0,1.942511,0.0007000819,1.94321108
1625.0,1.941377,0.0006730633,1.94205006
1750.0,1.94024,0.0006490151,1.94088902
1875.0,1.939102,0.0006274299,1.93972943
2000.0,1.937962,0.0006079116,1.93856991
2187.5,1.936249,0.0005818593,1.93683086
2375.0,1.934532,0.0005589846,1.93509098
2562.5,1.93281,0.0005386931,1.93334869
2750.0,1.931084,0.0005205378,1.93160454
3125.0,1.927619,0.0004893144,1.92810831
3500.0,1.924136,0.0004633186,1.92459932
3875.0,1.920635,0.0004412519,1.92107625
4250.0,1.917116,0.0004222261,1.91753823
4625.0,1.913579,0.0004056102,1.91398461
5000.0,1.910022,0.0003909439,1.91041294
5625.0,1.904053,0.0003699255,1.90442293
6250.0,1.898029,0.0003522373,1.89838124
6875.0,1.891949,0.0003371042,1.8922861
7500.0,1.885812,0.0003239822,1.88613598
8125.0,1.879616,0.0003124772,1.87992848
8750.0,1.873359,0.0003022966,1.8736613
10000.0,1.860656,0.0002850613,1.86094106
11250.0,1.847688,0.0002710108,1.84795901
12500.0,1.834438,0.0002593383,1.83469734
13750.0,1.820888,0.0002495023,1.8211375
15000.0,1.807016,0.0002411251,1.80725713
17500.0,1.778214,0.0002277337,1.77844173
20000.0,1.747815,0.0002177327,1.74803273
22201.16,1.719412,0.0002111736,1.71962317
24402.31,1.689497,0.0002061095,1.68970311
26603.47,1.657345,0.0002027287,1.65754773
28804.62,1.62304,0.0002006882,1.62324069
30134.49,1.600785,0.0002005189,1.60098552
30799.43,1.589285,0.0002013082,1.58948631
31131.9,1.583398,0.0002029388,1.58360094
31298.13,1.580418,0.0002059328,1.58062393
31464.359999999997,1.57742,0.0002137906,1.57763379
31518.820000000003,1.576432,0.0002216577,1.57665366
31573.27,1.575442,0.0002377003,1.5756797
31600.499999999996,1.574946,0.0002542007,1.5752002
31627.73,1.57445,0.0002836962,1.5747337
31641.35,1.574201,0.0003087648,1.57450976
31654.960000000003,1.573953,0.0003476763,1.57430068
31661.77,1.573829,0.0003753822,1.57420438
31668.57,1.573706,0.000411317,1.57411732
31675.380000000005,1.573582,0.0004598781,1.57404188
31682.179999999997,1.573459,0.000528388,1.57398739
31686.84,1.573374,0.0005929917,1.57396699
31691.499999999996,1.57329,0.0006793241,1.57396932
31696.16,1.573207,0.0007989122,1.57400591
