Reading data from C:\mcnpdata\Lib80x\Pb\82206.800nc

MT 102 Photon report for nuclide 82206.00c = Pb206 Lib80x (jlconlin)  Reference LA-UR-18-24034 by Conlin, J.L., et

1 photon distributions follow
Yield Interpolations     1 lines
     1     2  (linear-linear) 
 n-Energy      Yield       75 lines
1.00000e-11   1.736133
2.53000e-08   1.736133
1.00000e-06   1.736135
2.00000e-04   1.736131
1.00000e-03   1.736133
2.00000e-03   1.794661
5.00000e-03   1.856188
1.00000e-02   1.917402
2.00000e-02   2.000440
5.00000e-02   2.100835
1.00000e-01   2.225208
2.00000e-01   2.429066
3.00000e-01   2.573293
4.00000e-01   2.697879
5.00000e-01   2.810494
6.00000e-01   2.914598
7.00000e-01   3.010061
8.00000e-01   3.097275
9.00000e-01   3.228729
1.00000e+00   3.267066
1.20000e+00   3.357523
1.40000e+00   3.437698
1.60000e+00   3.514318
1.80000e+00   3.454801
2.00000e+00   3.480595
2.20000e+00   3.488079
2.40000e+00   3.474986
2.60000e+00   3.508621
2.80000e+00   3.549740
3.00000e+00   3.494070
3.20000e+00   3.475300
3.40000e+00   3.472653
3.60000e+00   3.448045
3.80000e+00   3.444661
4.00000e+00   3.461396
4.20000e+00   3.414073
4.40000e+00   3.395833
4.60000e+00   3.310281
4.80000e+00   3.270744
5.00000e+00   3.270338
5.20000e+00   3.140708
5.40000e+00   3.083712
5.60000e+00   2.936061
5.80000e+00   2.888077
6.00000e+00   2.886599
6.20000e+00   2.755125
6.40000e+00   2.736582
6.60000e+00   2.651978
6.80000e+00   2.673800
7.00000e+00   2.685190
7.20000e+00   2.656550
7.40000e+00   2.699833
7.60000e+00   2.724169
7.80000e+00   2.771642
8.00000e+00   2.803686
8.50000e+00   2.930446
9.00000e+00   3.075023
9.50000e+00   3.222047
1.00000e+01   3.358310
1.05000e+01   3.485696
1.10000e+01   3.603338
1.15000e+01   3.716209
1.20000e+01   3.826660
1.25000e+01   3.933149
1.30000e+01   4.035755
1.35000e+01   4.125924
1.40000e+01   4.196501
1.45000e+01   4.243488
1.50000e+01   4.258564
1.60000e+01   4.216866
1.70000e+01   4.153204
1.80000e+01   4.085737
1.90000e+01   4.040247
2.00000e+01   4.010979
2.00000e+02   4.010979
Distribution Law: 4
Neutron Energy Interpolation:    1 lines
     1     2  (linear-linear) 
39 neutron energy bins and distributions follow
Neutron E = 1.00000e-11   (1 of 39)
Distribution interpolation:   1  (histogram)
Number of Discrete Energies: 14
   EOUT           PDF              CDF             57 lines
2.09269700      1.62726805e-03    0.001627268
1.77024700      5.47100115e-03    0.007098269
1.72570000      3.94301011e-02    0.046528370
1.56863000      3.96037011e-11    0.046528370
1.54663000      1.22365003e-06    0.046529594
1.44215000      1.03507803e-04    0.046633102
1.09363000      1.48921804e-04    0.046782024
1.06863000      9.24421226e-05    0.046874466
1.06366700      2.43088907e-04    0.047117555
0.89780000      4.16244712e-01    0.463362266
0.56970300      1.73414605e-01    0.636776871
0.38704990      2.43488307e-05    0.636801220
0.36204980      9.24421226e-05    0.636893662
0.32809700      3.96382111e-03    0.640857483
0.00050000      3.18610009e-07    0.640857483
0.00150000      3.30853009e-07    0.640857484
0.00350000      3.67880010e-07    0.640857484
0.00750000      4.30680012e-07    0.640857486
0.01500000      5.61161016e-07    0.640857489
0.03500000      8.59595024e-06    0.640857500
0.07500000      6.13066017e-05    0.640857844
0.15000000      3.23718009e-04    0.640862442
0.25000000      9.04582025e-04    0.640894814
0.35000000      1.78893705e-03    0.640985272
0.45000000      3.00893008e-03    0.641164166
0.55000000      5.88857916e-03    0.641465059
0.65000000      8.06198023e-03    0.642053917
0.75000000      9.88736928e-03    0.642860115
0.85000000      1.21610003e-02    0.643848852
0.95000000      1.38750804e-02    0.645064952
1.05000000      1.52178804e-02    0.646452460
1.15000000      1.62574705e-02    0.647974248
1.25000000      1.69566105e-02    0.649599995
1.35000000      1.73441905e-02    0.651295656
1.45000000      1.75100505e-02    0.653030075
1.55000000      1.73691305e-02    0.654781080
1.65000000      1.69788705e-02    0.656517993
1.75000000      1.63703905e-02    0.658215880
1.85000000      1.55789004e-02    0.659852919
1.95000000      1.44556904e-02    0.661410809
2.10000000      1.26054804e-02    0.663579163
2.30000000      4.25303112e-02    0.666100259
2.50000000      4.90527114e-02    0.674606321
2.70000000      8.09337723e-02    0.684416863
2.90000000      8.03915923e-02    0.700603618
3.10000000      1.12841103e-01    0.716681936
3.30000000      1.46662404e-01    0.739250157
3.50000000      1.45032904e-01    0.768582638
3.70000000      1.42017304e-01    0.797589218
3.90000000      1.35236704e-01    0.825992679
4.25000000      1.16112303e-01    0.873325525
4.75000000      8.10613523e-02    0.931381677
5.25000000      4.18728712e-02    0.971912353
5.75000000      1.35106104e-02    0.992848789
6.25000000      7.91812022e-04    0.999604094
6.75000000      0.00000000e+00    1.000000000
7.25000000      0.00000000e+00    1.000000000
Neutron E = 2.53000e-08   (2 of 39)
Distribution interpolation:   1  (histogram)
Number of Discrete Energies: 14
   EOUT           PDF              CDF             57 lines
2.09269700      1.62726810e-03    0.001627268
1.77024700      5.47098733e-03    0.007098255
1.72570000      3.94300924e-02    0.046528348
1.56863000      3.96037024e-11    0.046528348
1.54663000      1.22365307e-06    0.046529572
1.44215000      1.03507306e-04    0.046633079
1.09363000      1.48921309e-04    0.046782000
1.06863000      9.24421555e-05    0.046874442
1.06366700      2.43088315e-04    0.047117531
0.89780000      4.16243925e-01    0.463361455
0.56970300      1.73415010e-01    0.636776466
0.38704990      2.43488315e-05    0.636800815
0.36204980      9.24421555e-05    0.636893257
0.32809700      3.96381824e-03    0.640857075
0.00050000      3.18611019e-07    0.640857075
0.00150000      3.30853020e-07    0.640857075
0.00350000      3.67881022e-07    0.640857076
0.00750000      4.30681026e-07    0.640857077
0.01500000      5.61161034e-07    0.640857081
0.03500000      8.59596051e-06    0.640857092
0.07500000      6.13067037e-05    0.640857436
0.15000000      3.23719019e-04    0.640862034
0.25000000      9.04583054e-04    0.640894406
0.35000000      1.78893911e-03    0.640984864
0.45000000      3.00893318e-03    0.641163758
0.55000000      5.88858535e-03    0.641464651
0.65000000      8.06198848e-03    0.642053510
0.75000000      9.88738159e-03    0.642859709
0.85000000      1.21610207e-02    0.643848447
0.95000000      1.38750908e-02    0.645064549
1.05000000      1.52178909e-02    0.646452058
1.15000000      1.62574910e-02    0.647973847
1.25000000      1.69566310e-02    0.649599596
1.35000000      1.73442110e-02    0.651295259
1.45000000      1.75100710e-02    0.653029680
1.55000000      1.73691510e-02    0.654780687
1.65000000      1.69788910e-02    0.656517602
1.75000000      1.63704110e-02    0.658215492
1.85000000      1.55789209e-02    0.659852533
1.95000000      1.44557109e-02    0.661410425
2.10000000      1.26054908e-02    0.663578781
2.30000000      4.25303625e-02    0.666099880
2.50000000      4.90527529e-02    0.674605952
2.70000000      8.09338448e-02    0.684416503
2.90000000      8.03916748e-02    0.700603272
3.10000000      1.12841207e-01    0.716681607
3.30000000      1.46662609e-01    0.739249848
3.50000000      1.45033009e-01    0.768582370
3.70000000      1.42017508e-01    0.797588971
3.90000000      1.35236908e-01    0.825992473
4.25000000      1.16112407e-01    0.873325391
4.75000000      8.10614448e-02    0.931381594
5.25000000      4.18729225e-02    0.971912317
5.75000000      1.35106308e-02    0.992848778
6.25000000      7.91813047e-04    0.999604093
6.75000000      0.00000000e+00    1.000000000
7.25000000      0.00000000e+00    1.000000000
Neutron E = 2.00000e-04   (3 of 39)
Distribution interpolation:   1  (histogram)
Number of Discrete Energies: 14
   EOUT           PDF              CDF             57 lines
2.09269700      1.62726415e-03    0.001627264
1.77024700      5.47098949e-03    0.007098254
1.72570000      3.94300635e-02    0.046528317
1.56863000      3.96037036e-11    0.046528317
1.54663000      1.22365011e-06    0.046529541
1.44215000      1.03507309e-04    0.046633048
1.09363000      1.48921513e-04    0.046781970
1.06863000      9.24421083e-05    0.046874412
1.06366700      2.43088322e-04    0.047117500
0.89780000      4.16243937e-01    0.463361437
0.56970300      1.73414916e-01    0.636776353
0.38704990      2.43487922e-05    0.636800702
0.36204980      9.24421083e-05    0.636893144
0.32809700      3.96381436e-03    0.640856958
0.00050000      3.18611029e-07    0.640856958
0.00150000      3.30853030e-07    0.640856959
0.00350000      3.67881033e-07    0.640856959
0.00750000      4.30681039e-07    0.640856961
0.01500000      5.61162050e-07    0.640856964
0.03500000      8.59596077e-06    0.640856975
0.07500000      6.13067055e-05    0.640857319
0.15000000      3.23719029e-04    0.640861917
0.25000000      9.04583081e-04    0.640894289
0.35000000      1.78894016e-03    0.640984747
0.45000000      3.00893527e-03    0.641163641
0.55000000      5.88858853e-03    0.641464535
0.65000000      8.06199272e-03    0.642053394
0.75000000      9.88738689e-03    0.642859593
0.85000000      1.21610211e-02    0.643848332
0.95000000      1.38751012e-02    0.645064434
1.05000000      1.52179014e-02    0.646451944
1.15000000      1.62575015e-02    0.647973734
1.25000000      1.69566315e-02    0.649599484
1.35000000      1.73442216e-02    0.651295147
1.45000000      1.75100816e-02    0.653029569
1.55000000      1.73691616e-02    0.654780578
1.65000000      1.69789015e-02    0.656517494
1.75000000      1.63704215e-02    0.658215384
1.85000000      1.55789314e-02    0.659852426
1.95000000      1.44557113e-02    0.661410319
2.10000000      1.26055011e-02    0.663578676
2.30000000      4.25303838e-02    0.666099776
2.50000000      4.90527844e-02    0.674605853
2.70000000      8.09338973e-02    0.684416410
2.90000000      8.03917172e-02    0.700603189
3.10000000      1.12841310e-01    0.716681533
3.30000000      1.46662613e-01    0.739249795
3.50000000      1.45033113e-01    0.768582317
3.70000000      1.42017513e-01    0.797588940
3.90000000      1.35236912e-01    0.825992442
4.25000000      1.16112410e-01    0.873325362
4.75000000      8.10614773e-02    0.931381567
5.25000000      4.18729438e-02    0.971912305
5.75000000      1.35106312e-02    0.992848777
6.25000000      7.91814071e-04    0.999604093
6.75000000      0.00000000e+00    1.000000000
7.25000000      0.00000000e+00    1.000000000
Neutron E = 2.00000e-03   (4 of 39)
Distribution interpolation:   1  (histogram)
Number of Discrete Energies: 14
   EOUT           PDF              CDF             57 lines
2.09269700      2.06072012e-03    0.002060720
1.77024700      6.60674240e-03    0.008667463
1.72570000      4.35496226e-02    0.052217085
1.56863000      1.16278007e-10    0.052217085
1.54663000      2.40944115e-06    0.052219495
1.44215000      1.24995108e-04    0.052344490
1.09363000      2.09084213e-04    0.052553574
1.06863000      1.29414508e-04    0.052682989
1.06366700      3.41919521e-04    0.053024908
0.89780000      3.88629223e-01    0.441654132
0.56970300      1.94594712e-01    0.636248843
0.38704990      3.41854621e-05    0.636283029
0.36204980      1.29414508e-04    0.636412443
0.32809700      3.70086522e-03    0.640113308
0.00050000      2.43129015e-07    0.640113308
0.00150000      2.57764016e-07    0.640113309
0.00350000      3.01790018e-07    0.640113309
0.00750000      3.75980023e-07    0.640113310
0.01500000      5.28612032e-07    0.640113313
0.03500000      8.43174051e-06    0.640113324
0.07500000      5.99002036e-05    0.640113661
0.15000000      3.15947019e-04    0.640118154
0.25000000      8.81815053e-04    0.640149748
0.35000000      1.74274511e-03    0.640237930
0.45000000      2.95584018e-03    0.640412204
0.55000000      5.91012436e-03    0.640707788
0.65000000      8.04454549e-03    0.641298801
0.75000000      9.83001659e-03    0.642103255
0.85000000      1.21602107e-02    0.643086257
0.95000000      1.38575808e-02    0.644302278
1.05000000      1.51692109e-02    0.645688036
1.15000000      1.61791310e-02    0.647204957
1.25000000      1.68577010e-02    0.648822870
1.35000000      1.72280710e-02    0.650508640
1.45000000      1.73822610e-02    0.652231448
1.55000000      1.72381010e-02    0.653969674
1.65000000      1.68505110e-02    0.655693484
1.75000000      1.62505710e-02    0.657378535
1.85000000      1.54759909e-02    0.659003592
1.95000000      1.43751309e-02    0.660551191
2.10000000      1.25698008e-02    0.662707461
2.30000000      4.35766926e-02    0.665221421
2.50000000      5.06393631e-02    0.673936759
2.70000000      8.45174251e-02    0.684064632
2.90000000      8.40800651e-02    0.700968117
3.10000000      1.14772307e-01    0.717784130
3.30000000      1.46702709e-01    0.740738591
3.50000000      1.45061609e-01    0.770079133
3.70000000      1.41982009e-01    0.799091455
3.90000000      1.35018608e-01    0.827487857
4.25000000      1.15555107e-01    0.874744369
4.75000000      8.00976548e-02    0.932521923
5.25000000      4.09119225e-02    0.972570750
5.75000000      1.31707208e-02    0.993026712
6.25000000      7.75856047e-04    0.999612072
6.75000000      0.00000000e+00    1.000000000
7.25000000      0.00000000e+00    1.000000000
Neutron E = 1.00000e-02   (5 of 39)
Distribution interpolation:   1  (histogram)
Number of Discrete Energies: 14
   EOUT           PDF              CDF             57 lines
2.09269700      6.82315402e-03    0.006823154
1.77024700      1.37997500e-02    0.020622904
1.72570000      4.47416101e-02    0.065364514
1.56863000      3.13689801e-09    0.065364517
1.54663000      3.38021801e-05    0.065398320
1.44215000      2.61081101e-04    0.065659401
1.09363000      1.25923000e-03    0.066918631
1.06863000      7.69905802e-04    0.067688536
1.06366700      2.07802401e-03    0.069766560
0.89780000      3.34781301e-01    0.404547861
0.56970300      2.51966301e-01    0.656514162
0.38704990      2.05885201e-04    0.656720047
0.36204980      7.69905802e-04    0.657489953
0.32809700      3.18806101e-03    0.660678014
0.00050000      2.46239001e-07    0.660678014
0.00150000      2.64730001e-07    0.660678014
0.00350000      3.20405001e-07    0.660678015
0.00750000      4.14003001e-07    0.660678016
0.01500000      6.14052002e-07    0.660678019
0.03500000      9.79460003e-06    0.660678031
0.07500000      6.94676002e-05    0.660678423
0.15000000      3.63816001e-04    0.660683633
0.25000000      1.00607800e-03    0.660720015
0.35000000      1.97600201e-03    0.660820623
0.45000000      3.54545101e-03    0.661018223
0.55000000      7.77001202e-03    0.661372768
0.65000000      1.04633200e-02    0.662149769
0.75000000      1.26982600e-02    0.663196101
0.85000000      1.60812400e-02    0.664465927
0.95000000      1.82122000e-02    0.666074051
1.05000000      1.98355601e-02    0.667895271
1.15000000      2.10802301e-02    0.669878827
1.25000000      2.19409401e-02    0.671986850
1.35000000      2.24229701e-02    0.674180944
1.45000000      2.26542501e-02    0.676423241
1.55000000      2.25452501e-02    0.678688666
1.65000000      2.21122001e-02    0.680943191
1.75000000      2.14128901e-02    0.683154411
1.85000000      2.04419301e-02    0.685295700
1.95000000      1.92071201e-02    0.687339893
2.10000000      1.69622300e-02    0.690220961
2.30000000      4.54036001e-02    0.693613407
2.50000000      5.21425701e-02    0.702694127
2.70000000      8.83287002e-02    0.713122641
2.90000000      8.60985202e-02    0.730788381
3.10000000      1.09641900e-01    0.748008085
3.30000000      1.34218800e-01    0.769936465
3.50000000      1.31402700e-01    0.796780225
3.70000000      1.27710100e-01    0.823060766
3.90000000      1.20638000e-01    0.848602786
4.25000000      1.01993000e-01    0.890826086
4.75000000      7.00576502e-02    0.941822586
5.25000000      3.48490401e-02    0.976851411
5.75000000      1.08059400e-02    0.994275931
6.25000000      6.42198002e-04    0.999678901
6.75000000      0.00000000e+00    1.000000000
7.25000000      0.00000000e+00    1.000000000
Neutron E = 5.00000e-02   (6 of 39)
Distribution interpolation:   1  (histogram)
Number of Discrete Energies: 14
   EOUT           PDF              CDF             57 lines
2.09269700      1.66988011e-02    0.016698801
1.77024700      2.89349418e-02    0.045633743
1.72570000      3.92763625e-02    0.084910105
1.56863000      1.43544109e-07    0.084910249
1.54663000      2.95573119e-04    0.085205822
1.44215000      5.47429235e-04    0.085753251
1.09363000      4.17112227e-03    0.089924374
1.06863000      2.53780516e-03    0.092462179
1.06366700      7.18705046e-03    0.099649229
0.89780000      2.70930117e-01    0.370579346
0.56970300      3.22956221e-01    0.693535567
0.38704990      6.81981443e-04    0.694217548
0.36204980      2.53780516e-03    0.696755354
0.32809700      2.58000916e-03    0.699335363
0.00050000      4.22724027e-07    0.699335363
0.00150000      4.46375028e-07    0.699335363
0.00350000      5.17542033e-07    0.699335364
0.00750000      6.37534041e-07    0.699335366
0.01500000      9.22260059e-07    0.699335371
0.03500000      1.33741009e-05    0.699335389
0.07500000      9.62299061e-05    0.699335924
0.15000000      4.95320031e-04    0.699343142
0.25000000      1.35915009e-03    0.699392674
0.35000000      2.64344617e-03    0.699528589
0.45000000      5.18758333e-03    0.699792933
0.55000000      1.21107408e-02    0.700311691
0.65000000      1.59452010e-02    0.701522766
0.75000000      1.92785612e-02    0.703117286
0.85000000      2.52162016e-02    0.705045142
0.95000000      2.83811618e-02    0.707566762
1.05000000      3.06568119e-02    0.710404878
1.15000000      3.23089521e-02    0.713470559
1.25000000      3.36622321e-02    0.716701455
1.35000000      3.44684822e-02    0.720067678
1.45000000      3.47773622e-02    0.723514526
1.55000000      3.48589422e-02    0.726992262
1.65000000      3.42278622e-02    0.730478156
1.75000000      3.33553221e-02    0.733900943
1.85000000      3.20679920e-02    0.737236475
1.95000000      3.02211219e-02    0.740443274
2.10000000      2.69142317e-02    0.744976442
2.30000000      4.76732130e-02    0.750359289
2.50000000      5.26158033e-02    0.759893931
2.70000000      9.00497257e-02    0.770417092
2.90000000      8.41397153e-02    0.788427037
3.10000000      9.59949361e-02    0.805254980
3.30000000      1.08971707e-01    0.824453967
3.50000000      1.03926807e-01    0.846248309
3.70000000      9.91205863e-02    0.867033670
3.90000000      9.17819658e-02    0.886857787
4.25000000      7.64316749e-02    0.918981475
4.75000000      5.17611933e-02    0.957197313
5.25000000      2.54278816e-02    0.983077909
5.75000000      7.71188449e-03    0.995791850
6.25000000      7.04415045e-04    0.999647792
6.75000000      0.00000000e+00    1.000000000
7.25000000      0.00000000e+00    1.000000000
Neutron E = 2.00000e-01   (7 of 39)
Distribution interpolation:   1  (histogram)
Number of Discrete Energies: 14
   EOUT           PDF              CDF             57 lines
2.09269700      2.70913316e-02    0.027091332
1.77024700      4.77708727e-02    0.074862204
1.72570000      3.67870921e-02    0.111649296
1.56863000      1.19807707e-05    0.111661277
1.54663000      2.50119614e-03    0.114162473
1.44215000      9.03788052e-04    0.115066261
1.09363000      1.15178307e-02    0.126584092
1.06863000      6.96204440e-03    0.133546136
1.06366700      2.34865714e-02    0.157032708
